#Creator: wheelEventBuffer
#Creation time: Wed Apr  6 16:03:33 2016
#Time	Angular velocity
#[s]	[rad/s]
0.468838	1.031823
0.744284	1.368373
0.958268	1.624603
1.141458	1.839211
1.305024	2.026024
1.454446	2.196027
1.592956	2.353641
1.722608	2.503102
1.844800	2.647960
1.960530	2.789601
2.070532	2.929060
2.175412	3.068561
2.275674	3.205053
2.371760	3.339704
2.464108	3.470836
2.553118	3.594582
2.639156	3.712677
2.722542	3.826917
2.803542	3.935058
2.882404	4.036169
2.959360	4.132152
3.034592	4.222684
3.108282	4.307446
3.180542	4.389048
3.251534	4.464900
3.321330	4.538955
3.389994	4.612392
3.457578	4.685587
3.524096	4.760422
3.589560	4.838877
3.653942	4.920270
3.717252	5.005086
3.779498	5.090402
3.840692	5.177824
3.900872	5.265474
3.960082	5.348666
4.018384	5.429457
4.075830	5.509440
4.132472	5.586047
4.188354	5.658692
4.243550	5.727190
4.298090	5.793731
4.352044	5.855063
4.405418	5.915479
4.458290	5.971474
4.510656	6.027614
4.562532	6.084113
4.613930	6.140481
4.664846	6.199370
4.715274	6.261396
4.765184	6.326713
4.814588	6.392887
4.863468	6.460195
4.911832	6.531921
4.959666	6.604147
5.006994	6.674016
5.053836	6.739880
5.100226	6.805877
5.146176	6.869272
5.191718	6.928354
5.236884	6.984732
5.281688	7.038879
5.326170	7.089391
5.370324	7.138685
5.414214	7.181440
5.457854	7.218070
5.501240	7.260105
5.544330	7.317601
5.587128	7.369787
5.629630	7.411864
5.671838	7.471444
5.713736	7.528379
5.755318	7.581063
5.796574	7.644894
5.837496	7.712458
5.878086	7.770065
5.918360	7.828929
5.958334	7.890277
5.998024	7.943746
6.037446	7.993874
6.076626	8.044228
6.115566	8.091466
6.154298	8.133784
6.192818	8.175695
6.231160	8.214173
6.269318	8.252581
6.307298	8.290038
6.345106	8.328277
6.382732	8.369992
6.420168	8.414379
6.457402	8.460151
6.494420	8.511033
6.531218	8.564865
6.567772	8.621748
6.604090	8.680831
6.640174	8.733925
6.676032	8.787180
6.711674	8.842085
6.747112	8.890629
6.782360	8.934624
6.817436	8.980084
6.852338	9.021343
6.887098	9.058802
6.921704	9.094467
6.956196	9.125639
6.990560	9.158094
7.024798	9.192394
7.058914	9.224785
7.092902	9.260679
7.126752	9.300707
7.160450	9.344416
7.193988	9.390222
7.227360	9.437046
7.260556	9.488350
7.293570	9.545432
7.326400	9.594407
7.359064	9.642111
7.391562	9.690890
7.423908	9.735939
7.456106	9.778364
7.488174	9.817477
7.520112	9.854431
7.551942	9.887929
7.583658	9.921654
7.615284	9.948045
7.646816	9.977745
7.678258	10.005709
7.709606	10.036396
7.740858	10.067916
7.772010	10.102884
7.803044	10.140712
7.833962	10.182124
7.864750	10.224542
7.895400	10.273357
7.925906	10.324677
7.956266	10.372400
7.986490	10.416421
8.016580	10.464302
8.046546	10.506296
8.076392	10.545088
8.106136	10.580603
8.135778	10.615641
8.165334	10.646579
8.194798	10.675522
8.224198	10.699519
8.253524	10.725088
8.282780	10.750779
8.311964	10.778073
8.341070	10.807736
8.370094	10.841303
8.399020	10.878844
8.427844	10.919682
8.456558	10.961593
8.485154	11.008454
8.513628	11.058831
8.541984	11.102603
8.570226	11.144351
8.598360	11.188805
8.626390	11.227994
8.654326	11.263418
8.682182	11.295817
8.709952	11.327586
8.737660	11.352966
8.765294	11.380933
8.792880	11.399930
8.820410	11.423143
8.847884	11.443948
8.875310	11.467341
8.902672	11.492510
8.929972	11.523706
8.957192	11.557621
8.984330	11.595160
9.011378	11.634667
9.038326	11.678783
9.065172	11.726736
9.091918	11.768028
9.118568	11.806948
9.145130	11.847913
9.171606	11.886465
9.198000	11.918934
9.224326	11.949763
9.250582	11.978924
9.276788	12.001806
9.302932	12.026616
9.329038	12.045060
9.355100	12.064488
9.381116	12.085838
9.407084	12.107263
9.433008	12.131575
9.458872	12.159749
9.484672	12.192784
9.510398	12.229806
9.536048	12.266097
9.561612	12.310316
9.587086	12.355827
9.612474	12.394826
9.637780	12.433088
9.663010	12.471587
9.688164	12.507336
9.713250	12.540287
9.738276	12.567376
9.763246	12.595592
9.788168	12.618865
9.813040	12.640189
9.837882	12.656485
9.862686	12.673845
9.887454	12.693304
9.912184	12.713851
9.936870	12.736531
9.961510	12.764475
9.986092	12.793585
10.010610	12.832255
10.035060	12.866942
10.059432	12.909240
10.083728	12.953953
10.107946	12.993600
10.132090	13.028086
10.156168	13.068189
10.180178	13.100887
10.204132	13.131553
10.228032	13.157952
10.251884	13.184458
10.275694	13.206628
10.299462	13.226645
10.323206	13.240023
10.346918	13.256784
10.370600	13.272466
10.394254	13.291558
10.417870	13.311833
10.441448	13.337831
10.464978	13.363930
10.488454	13.398126
10.511874	13.431350
10.535226	13.471667
10.558510	13.515714
10.581724	13.551862
10.604874	13.588204
10.627964	13.623559
10.650998	13.657911
10.673974	13.685279
10.696910	13.713954
10.719798	13.735540
10.742658	13.754784
10.765478	13.775290
10.788276	13.787381
10.811052	13.800706
10.833802	13.816486
10.856524	13.833521
10.879218	13.853041
10.901876	13.878745
10.924488	13.905775
10.947052	13.939092
10.969564	13.972570
10.992010	14.013706
11.014398	14.056343
11.036722	14.091651
11.058994	14.119518
11.081224	14.144947
11.103430	14.156420
11.125628	14.151318
11.147846	14.133492
11.170102	14.097975
11.192424	14.056343
11.214804	14.012456
11.237264	13.967600
11.259786	13.927969
11.282370	13.892247
11.305016	13.853041
11.327726	13.815271
11.350496	13.778915
11.373324	13.743952
11.396208	13.711560
11.419142	13.685279
11.442110	13.666229
11.465108	13.654349
11.488136	13.635385
11.511192	13.614113
11.534290	13.590555
11.557434	13.560051
11.580630	13.525024
11.603894	13.486703
11.627218	13.450902
11.650610	13.410709
11.674066	13.374171
11.697598	13.329908
11.721208	13.284813
11.744892	13.241139
11.768660	13.195534
11.792508	13.150241
11.816430	13.115107
11.840410	13.083428
11.864446	13.056241
11.888532	13.031328
11.912656	13.011898
11.936818	12.993600
11.961022	12.967855
11.985276	12.937948
12.009582	12.911362
12.033942	12.882771
12.058360	12.850101
12.082842	12.815504
12.107388	12.781093
12.132014	12.737563
12.156718	12.693304
12.181520	12.644259
12.206412	12.596602
12.231396	12.551309
12.256468	12.508332
12.281626	12.465648
12.306866	12.430136
12.332172	12.395804
12.357548	12.364581
12.382986	12.334482
12.408478	12.311281
12.434018	12.291051
12.459608	12.264181
12.485254	12.235522
12.510960	12.206997
12.536730	12.174828
12.562574	12.138137
12.588500	12.099802
12.614504	12.060783
12.640604	12.016496
12.666792	11.972533
12.693094	11.920743
12.719500	11.872988
12.746014	11.823834
12.772638	11.775968
12.799366	11.731115
12.826190	11.691822
12.853102	11.654521
12.880096	11.621754
12.907164	11.590027
12.934300	11.562726
12.961500	11.538096
12.988766	11.507665
13.016104	11.475718
13.043516	11.444782
13.071008	11.411524
13.098584	11.373516
13.126260	11.331672
13.154034	11.289322
13.181924	11.243263
13.209920	11.195982
13.238054	11.141980
13.266314	11.090845
13.294708	11.037849
13.323234	10.987663
13.351888	10.939455
13.380664	10.894689
13.409550	10.856288
13.438538	10.818157
13.467626	10.782512
13.496800	10.751515
13.526062	10.722891
13.555406	10.691508
13.584840	10.653800
13.614374	10.619947
13.644012	10.582742
13.673758	10.540135
13.703628	10.496467
13.733622	10.450378
13.763764	10.399181
13.794042	10.349165
13.824488	10.291531
13.855096	10.237870
13.885860	10.183445
13.916794	10.129595
13.947888	10.076312
13.979136	10.029987
14.010526	9.986626
14.042046	9.946785
14.073694	9.906012
14.105464	9.870531
14.137344	9.837767
14.169342	9.801550
14.201458	9.760743
14.233710	9.722079
14.266098	9.678947
14.298632	9.633832
14.331326	9.586210
14.364184	9.535581
14.397230	9.480905
14.430460	9.425155
14.463904	9.365587
14.497558	9.305114
14.531426	9.245417
14.565514	9.187018
14.599814	9.130944
14.634322	9.077649
14.669022	9.028084
14.703912	8.980598
14.738984	8.934624
14.774220	8.894153
14.809624	8.855044
14.845194	8.810839
14.880940	8.766094
14.916872	8.720348
14.952998	8.674120
14.989326	8.621748
15.025886	8.566267
15.062680	8.509650
15.099740	8.448775
15.137054	8.386974
15.174674	8.319015
15.212592	8.251714
15.250818	8.185068
15.289356	8.119069
15.328206	8.053301
15.367360	7.993874
15.406802	7.936120
15.446522	7.882358
15.486514	7.828929
15.526764	7.780071
15.567270	7.732580
15.608038	7.681156
15.649082	7.627446
15.690414	7.574848
15.732052	7.517211
15.774012	7.457256
15.816326	7.393722
15.859006	7.328526
15.902090	7.258092
15.945588	7.185711
15.989554	7.108962
16.033990	7.031632
16.078914	6.954427
16.124340	6.878295
16.170268	6.802340
16.216696	6.730927
16.263612	6.661845
16.311008	6.594997
16.358882	6.529477
16.407224	6.467376
16.456034	6.406445
16.505328	6.342296
16.555126	6.275153
16.605460	6.208681
16.656358	6.138321
16.707856	6.063914
16.760010	5.986038
16.812854	5.905027
16.866468	5.818195
16.920882	5.729070
16.976200	5.633729
17.032456	5.536822
17.089708	5.439234
17.148008	5.340483
17.207390	5.241404
17.267894	5.145260
17.329520	5.051117
17.392298	4.959104
17.456246	4.867818
17.521382	4.778960
17.587752	4.690344
17.655414	4.598888
17.724454	4.504075
17.794982	4.407521
17.867122	4.305793
17.941040	4.198643
18.016938	4.084977
18.095044	3.964455
18.175664	3.835888
18.259108	3.699909
18.345822	3.554562
18.436242	3.402791
18.530898	3.244039
18.630438	3.078544
18.735616	2.906460
18.847358	2.729209
18.966800	2.545696
19.095494	2.353958
19.235672	2.150244
19.390712	1.930437
19.566486	1.685440
19.775176	1.394280
20.054564	1.008174
20.766244	0.275189
21.482338	0.950379
21.779194	1.300016
22.003230	1.567301
22.192362	1.792308
22.359492	1.993068
22.510892	2.176824
22.650224	2.348082
22.779854	2.511386
22.901400	2.669062
23.016028	2.822128
23.124680	2.969482
23.228134	3.111535
23.327050	3.247863
23.421970	3.379219
23.513334	3.502880
23.601620	3.620181
23.687136	3.731551
23.770200	3.837388
23.851056	3.937030
23.929936	4.032232
24.007000	4.123258
24.082376	4.214527
24.156172	4.302726
24.228498	4.387209
24.299434	4.471127
24.369044	4.556995
24.437370	4.640599
24.504470	4.724626
24.570384	4.809247
24.635138	4.895124
24.698768	4.980962
24.761290	5.069538
24.822756	5.154377
24.883220	5.240879
24.942710	5.320946
25.001326	5.400895
25.059088	5.478503
25.116070	5.550321
25.172312	5.621833
25.227878	5.688818
25.282800	5.751726
25.337118	5.816256
25.390862	5.876969
25.444060	5.934700
25.496732	5.993804
25.548888	6.054098
25.600520	6.115141
25.651624	6.179129
25.702206	6.244221
25.752252	6.310446
25.801770	6.378609
25.850750	6.449055
25.899214	6.517286
25.947174	6.586424
25.994632	6.651689
26.041648	6.715388
26.088228	6.773886
26.134406	6.833412
26.180194	6.890364
26.225624	6.941826
26.270716	6.992194
26.315476	7.044877
26.359924	7.093553
26.404078	7.138037
26.447938	7.185382
26.491510	7.235358
26.534782	7.285021
26.577750	7.337427
26.620408	7.392331
26.662738	7.450535
26.704742	7.508587
26.746412	7.569008
26.787752	7.629669
26.828772	7.691310
26.869464	7.748218
26.909868	7.804811
26.949984	7.857911
26.989838	7.909347
27.029436	7.958235
27.068802	8.004058
27.107950	8.046700
27.146884	8.090216
27.185620	8.132099
27.224168	8.169317
27.262530	8.207735
27.300706	8.250414
27.338682	8.294415
27.376454	8.339773
27.414016	8.387422
27.451358	8.439243
27.488466	8.492168
27.525340	8.546691
27.561984	8.600506
27.598398	8.656910
27.634578	8.707779
27.670558	8.758273
27.706332	8.804912
27.741926	8.849557
27.777340	8.892139
27.812594	8.931576
27.847698	8.967780
27.882656	9.005311
27.917476	9.041595
27.952166	9.071358
27.986732	9.104482
28.021168	9.141040
28.055464	9.179502
28.089614	9.218829
28.123612	9.261771
28.157444	9.308974
28.191104	9.357776
28.224586	9.407656
28.257892	9.456932
28.291030	9.508452
28.323990	9.551236
28.356810	9.596752
28.389478	9.635605
28.422018	9.675370
28.454424	9.713062
28.486714	9.748022
28.518886	9.780799
28.550952	9.813184
28.582916	9.845784
28.614784	9.872392
28.646556	9.900393
28.678236	9.933576
28.709808	9.967614
28.741266	10.003798
28.772612	10.041529
28.803828	10.085370
28.834908	10.130902
28.865848	10.175528
28.896650	10.223211
28.927312	10.272014
28.957826	10.315862
28.988222	10.359403
29.018492	10.397116
29.048652	10.436491
29.078702	10.472674
29.108656	10.504891
29.138522	10.534480
29.168298	10.564947
29.197996	10.593447
29.227624	10.616358
29.257176	10.641531
29.286658	10.671171
29.316054	10.701705
29.345364	10.735349
29.374580	10.771421
29.403688	10.812199
29.432686	10.854788
29.461570	10.897713
29.490340	10.941741
29.518996	10.988432
29.547530	11.028550
29.575966	11.070522
29.604298	11.105743
29.632542	11.141980
29.660698	11.173683
29.688778	11.203968
29.716784	11.230402
29.744722	11.259382
29.772596	11.283646
29.800414	11.304759
29.828174	11.326769
29.855874	11.354607
29.883512	11.380933
29.911074	11.414012
29.938558	11.446450
29.965958	11.484948
29.993260	11.527088
30.020466	11.567835
30.047574	11.610587
30.074584	11.655386
30.101488	11.694434
30.128314	11.731991
30.155052	11.766265
30.181714	11.800739
30.208304	11.830958
30.234828	11.857751
30.261294	11.881969
30.287706	11.908091
30.314064	11.930703
30.340378	11.948854
30.366648	11.967060
30.392870	11.993558
30.419036	12.018335
30.445142	12.048756
30.471184	12.079332
30.497148	12.117537
30.523034	12.156925
30.548830	12.196571
30.574546	12.237429
30.600176	12.281441
30.625714	12.319005
30.651182	12.355827
30.676574	12.387007
30.701906	12.417362
30.727178	12.446881
30.752392	12.472577
30.777560	12.493409
30.802680	12.517303
30.827758	12.539286
30.852800	12.553315
30.877806	12.571399
30.902772	12.594582
30.927694	12.616838
30.952564	12.645277
30.977380	12.674867
31.002130	12.709736
31.026810	12.748935
31.051412	12.788377
31.075942	12.827016
31.100396	12.870105
31.124772	12.903938
31.149096	12.932622
31.173372	12.949681
31.197632	12.955021
31.221894	12.945412
31.246192	12.918795
31.270550	12.877491
31.294982	12.837499
31.319496	12.796711
31.344094	12.748935
31.368774	12.705624
31.393538	12.666691
31.418382	12.624950
31.443302	12.587518
31.468298	12.549304
31.493364	12.516305
31.518488	12.491422
31.543662	12.464659
31.568888	12.443922
31.594158	12.423255
31.619474	12.393848
31.644856	12.364581
31.670298	12.329641
31.695818	12.292975
31.721412	12.256526
31.747084	12.219341
31.772840	12.175772
31.798684	12.135324
31.824626	12.088628
31.850676	12.033065
31.876834	11.983493
31.903098	11.938864
31.929456	11.899071
31.955898	11.861333
31.982426	11.825614
32.009024	11.794536
32.035698	11.762740
32.062436	11.733744
32.089242	11.705763
32.116110	11.681389
32.143036	11.651927
32.170038	11.620895
32.197112	11.585753
32.224276	11.547426
32.251526	11.508509
32.278878	11.465667
32.306332	11.419821
32.333894	11.376811
32.361566	11.330854
32.389364	11.273928
32.417290	11.224784
32.445334	11.178454
32.473492	11.134082
32.501760	11.093194
32.530132	11.053383
32.558596	11.020039
32.587148	10.985358
32.615784	10.953949
32.644506	10.922720
32.673308	10.895445
32.702184	10.861543
32.731160	10.825612
32.760230	10.786955
32.789412	10.746366
32.818702	10.704623
32.848114	10.660308
32.877654	10.610621
32.907326	10.562816
32.937142	10.513328
32.967108	10.455943
32.997226	10.403314
33.027494	10.355306
33.057904	10.307063
33.088448	10.262618
33.119124	10.219885
33.149922	10.180145
33.180838	10.143332
33.211862	10.108084
33.242994	10.074374
33.274236	10.040245
33.305584	10.001250
33.337062	9.961925
33.368662	9.920401
33.400402	9.876737
33.432286	9.830995
33.464326	9.780799
33.496534	9.727498
33.528914	9.675370
33.561480	9.622030
33.594232	9.562866
33.627180	9.505575
33.660322	9.452948
33.693646	9.401462
33.727152	9.350535
33.760836	9.304012
33.794678	9.259587
33.828684	9.218288
33.862838	9.177356
33.897144	9.136786
33.931610	9.098154
33.966220	9.053059
34.001014	9.007893
34.035986	8.958574
34.071158	8.907266
34.106532	8.854545
34.142126	8.799486
34.177950	8.740242
34.214010	8.683710
34.250320	8.623168
34.286894	8.557400
34.323734	8.495383
34.360844	8.437430
34.398208	8.378474
34.435830	8.322100
34.473700	8.268655
34.511808	8.219331
34.550146	8.170167
34.588708	8.122428
34.627502	8.073998
34.666528	8.028604
34.705782	7.976825
34.745302	7.924110
34.785092	7.867356
34.825170	7.811021
34.865550	7.750130
34.906258	7.686418
34.947308	7.620046
34.988716	7.554448
35.030498	7.485686
35.072676	7.412563
35.115258	7.341885
35.158244	7.275237
35.201632	7.207141
35.245420	7.141282
35.289608	7.078848
35.334178	7.018123
35.379134	6.958431
35.424472	6.900050
35.470196	6.841745
35.516320	6.783539
35.562840	6.721422
35.609812	6.658174
35.657236	6.591399
35.705158	6.521616
35.753602	6.449320
35.802612	6.373950
35.852212	6.294263
35.902440	6.215806
35.953336	6.132569
36.004938	6.045012
36.057274	5.960824
36.110352	5.877849
36.164182	5.795013
36.218782	5.713857
36.274160	5.633325
36.330316	5.555818
36.387268	5.477739
36.445024	5.401081
36.503624	5.323290
36.563090	5.245079
36.623468	5.162678
36.684848	5.076911
36.747294	4.986813
36.810914	4.892684
36.875794	4.794422
36.942058	4.691325
37.009822	4.583991
37.079212	4.473929
37.150392	4.358601
37.223510	4.238293
37.298726	4.118285
37.376176	3.998260
37.456014	3.875734
37.538424	3.752858
37.623602	3.628292
37.711768	3.503114
37.803200	3.374501
37.898256	3.241763
37.997394	3.103543
38.101250	2.957238
38.210682	2.796106
38.327026	2.620440
38.451954	2.427702
38.588010	2.215353
38.739088	1.977636
38.912256	1.702668
39.123030	1.368349
39.437612	0.883472
39.985092	0.395188
40.533828	0.855195
40.859062	1.319964
41.077852	1.637235
41.258212	1.895014
41.416152	2.114839
41.558962	2.307450
41.690660	2.480061
41.813798	2.636051
41.930016	2.779875
42.040570	2.912766
42.146256	3.039114
42.247690	3.160620
42.345342	3.278777
42.439546	3.394922
42.530576	3.511650
42.618620	3.628459
42.703868	3.745610
42.786490	3.862772
42.866630	3.980529
42.944440	4.098407
43.020096	4.211702
43.093780	4.318934
43.165674	4.423657
43.235938	4.522750
43.304710	4.616323
43.372140	4.704955
43.438336	4.789159
43.503422	4.867668
43.567468	4.943342
43.630592	5.013713
43.692838	5.082003
43.754244	5.150152
43.814850	5.218072
43.874662	5.287274
43.933692	5.357605
43.991938	5.430208
44.049398	5.504999
44.106078	5.581085
44.161956	5.662568
44.217034	5.746886
44.271330	5.827909
44.324880	5.906137
44.377738	5.982619
44.429940	6.055499
44.481534	6.124440
44.532568	6.189111
44.583080	6.250682
44.633120	6.308419
44.682704	6.362848
44.731894	6.412722
44.780690	6.464182
44.829096	6.515394
44.877124	6.567423
44.924768	6.620011
44.972022	6.677136
45.018864	6.735544
45.065290	6.798513
45.111286	6.861770
45.156840	6.930188
45.201948	7.000296
45.246618	7.067700
45.290870	7.130908
45.334734	7.194267
45.378230	7.253735
45.421372	7.310109
45.464196	7.363913
45.506716	7.413613
45.548966	7.460443
45.590942	7.506075
45.632694	7.545738
45.674214	7.588021
45.715500	7.628928
45.756566	7.671777
45.797396	7.716247
45.837984	7.764304
45.878312	7.814907
45.918374	7.868933
45.958160	7.923710
45.997654	7.983311
46.036858	8.045052
46.075772	8.103572
46.114410	8.158286
46.152786	8.214173
46.190920	8.265609
46.228818	8.312851
46.266512	8.357967
46.304004	8.400879
46.341320	8.439243
46.378466	8.474758
46.415478	8.504582
46.452350	8.535081
46.489092	8.565800
46.525702	8.596270
46.562180	8.627431
46.598512	8.665984
46.634680	8.705366
46.670674	8.750954
46.706478	8.797022
46.742082	8.848061
46.777478	8.904741
46.812660	8.955509
46.847642	9.005311
46.882432	9.056191
46.917034	9.103427
46.951464	9.145830
46.985738	9.188093
47.019858	9.226410
47.053848	9.262317
47.087700	9.295753
47.121448	9.325554
47.155082	9.355547
47.188604	9.386294
47.222016	9.418938
47.255308	9.453517
47.288474	9.490643
47.321500	9.533267
47.354378	9.578026
47.387098	9.623209
47.419654	9.675370
47.452040	9.727498
47.484258	9.775321
47.516322	9.821160
47.548232	9.868671
47.579998	9.912889
47.611628	9.951827
47.643138	9.989801
47.674530	10.024866
47.705824	10.056315
47.737012	10.087313
47.768122	10.112640
47.799148	10.139403
47.830088	10.166309
47.860946	10.194680
47.891716	10.225207
47.922386	10.259937
47.952950	10.297603
47.983394	10.339628
48.013718	10.381312
48.043906	10.429562
48.073958	10.478961
48.103878	10.524599
48.133664	10.567790
48.163332	10.611338
48.192882	10.653078
48.222320	10.690780
48.251662	10.724355
48.280910	10.757405
48.310082	10.784733
48.339168	10.813688
48.368196	10.836067
48.397156	10.859290
48.426052	10.884121
48.454880	10.909823
48.483642	10.935647
