#Creator: pendulumdriveEventBuffer
#Creation time: Wed Apr 20 15:41:28 2016
#Time	Pos
#[s]	[au]
0.050	562
0.100	558
0.151	556
0.201	549
0.251	545
0.301	539
0.352	530
0.402	523
0.453	516
0.503	512
0.553	506
0.603	505
0.653	503
0.704	505
0.754	509
0.804	513
0.854	519
0.904	528
0.954	537
1.005	545
1.055	553
1.105	562
1.155	565
1.205	571
1.256	573
1.307	571
1.357	570
1.407	563
1.457	558
1.507	549
1.558	539
1.608	529
1.658	520
1.708	512
1.758	504
1.808	499
1.859	496
1.909	495
1.959	498
2.009	502
2.059	509
2.109	518
2.161	528
2.211	537
2.261	549
2.311	558
2.361	564
2.412	572
2.462	575
2.512	575
2.562	575
2.612	569
2.662	567
2.713	557
2.763	547
2.813	538
2.863	528
2.913	519
2.963	510
3.014	503
3.065	499
3.115	496
3.165	498
3.215	500
3.266	505
3.316	512
3.366	519
3.416	529
3.466	539
3.516	547
3.567	555
3.617	563
3.667	566
3.717	570
3.767	570
3.818	567
3.868	565
3.918	559
3.969	552
4.019	546
4.069	537
4.120	530
4.170	523
4.220	518
4.270	511
4.320	509
4.370	509
4.421	509
4.471	514
4.521	514
4.571	519
4.621	524
4.672	531
4.722	536
4.772	541
4.822	547
4.873	547
4.923	554
4.974	556
5.024	555
5.074	555
5.124	554
5.174	550
5.224	548
5.275	542
5.325	541
5.375	537
5.425	533
5.475	531
5.526	528
5.576	526
5.626	524
5.676	523
5.726	524
5.777	524
5.828	524
5.878	526
5.928	526
5.978	528
6.028	530
6.079	530
6.129	534
6.179	536
6.229	537
6.279	540
6.329	541
6.380	543
6.430	545
6.480	546
6.530	548
6.580	549
6.630	547
6.682	550
6.732	548
6.782	545
6.832	543
6.882	540
6.933	537
6.983	534
7.033	529
7.083	526
7.133	522
7.183	519
7.234	516
7.284	516
7.334	515
7.384	516
7.434	519
7.484	522
7.535	527
7.586	532
7.636	538
7.686	543
7.736	551
7.787	555
7.837	558
7.887	562
7.937	563
7.987	563
8.037	561
8.088	557
8.138	553
8.188	546
8.238	539
8.288	531
8.338	523
8.389	516
8.439	510
8.490	506
8.540	502
8.590	501
8.641	504
8.691	507
8.741	512
8.791	519
8.841	528
8.891	536
8.942	546
8.992	555
9.042	560
9.092	568
9.142	571
9.192	574
9.243	574
9.293	568
9.344	567
9.394	558
9.444	549
9.495	540
9.545	530
9.595	520
9.645	510
9.695	505
9.745	498
9.796	495
9.846	496
9.896	496
9.946	502
9.996	509
10.047	517
10.097	527
10.147	538
10.197	548
10.248	556
10.298	566
10.349	570
10.399	574
10.449	577
10.499	574
10.549	573
10.599	566
10.650	557
10.700	549
10.750	539
10.800	529
10.850	519
10.901	511
10.951	503
11.001	499
11.051	498
11.101	497
11.152	500
11.203	506
11.253	512
11.303	520
11.353	528
11.403	538
11.453	546
11.504	555
11.554	560
11.604	566
11.654	569
11.704	568
11.755	569
11.805	564
11.855	558
11.905	553
11.955	542
12.005	538
12.057	530
12.107	524
12.157	517
12.207	512
12.257	511
12.307	508
12.358	510
12.408	511
12.458	514
12.508	518
12.558	524
12.609	529
12.659	534
12.709	541
12.759	544
12.809	549
12.859	552
12.910	553
12.961	555
13.011	554
13.061	552
13.111	551
13.162	545
13.212	545
13.262	542
13.312	539
13.362	535
13.412	532
13.463	530
13.513	527
13.563	524
13.613	525
13.663	524
13.713	523
13.764	522
13.814	524
13.865	525
13.915	526
13.965	527
14.016	529
14.066	532
14.116	534
14.166	537
14.216	539
14.266	541
14.317	545
14.367	546
14.417	549
14.467	551
14.517	551
14.567	553
14.618	551
14.668	550
14.718	548
14.769	544
14.819	542
14.870	537
14.920	532
14.970	527
15.020	523
15.070	519
15.120	515
15.171	513
15.221	512
15.271	512
15.321	514
15.371	517
15.421	521
15.472	528
15.522	533
15.572	540
15.622	548
15.673	554
15.724	557
15.774	563
15.824	565
15.874	566
15.924	566
15.974	561
16.025	559
16.075	552
16.125	543
16.175	536
16.225	528
16.275	519
16.326	512
16.376	506
16.426	502
16.476	499
16.526	500
16.578	501
16.628	507
16.678	513
16.728	521
16.778	530
16.828	541
16.879	550
16.929	558
16.979	566
17.029	570
17.079	574
17.130	576
17.180	571
17.230	570
17.280	563
17.330	554
17.380	545
17.431	536
17.482	525
17.532	515
17.582	508
17.632	500
17.682	497
17.733	495
17.783	496
17.833	500
17.883	505
17.933	512
17.984	522
18.034	531
18.084	542
18.134	550
18.184	561
18.234	566
18.285	572
18.335	575
18.386	574
18.436	572
18.486	568
18.536	560
18.587	553
18.637	543
18.687	535
18.737	525
18.787	517
18.838	510
18.888	505
18.938	502
18.988	500
19.038	503
19.088	506
19.139	510
19.189	518
19.240	525
19.290	532
19.340	541
19.391	548
19.441	551
19.491	559
19.541	562
19.591	563
19.641	565
19.692	562
19.742	558
19.792	554
19.842	546
19.892	543
19.942	537
19.993	532
20.043	527
20.093	521
20.144	518
20.194	516
20.245	516
20.295	516
20.345	517
20.395	519
20.445	522
20.495	525
20.546	528
20.596	533
20.646	536
20.696	540
20.746	543
20.796	544
20.847	547
20.897	548
20.947	549
20.997	549
21.048	546
21.099	548
21.149	547
21.199	545
21.249	544
21.299	542
21.349	539
21.400	537
21.450	534
21.500	532
21.550	529
21.600	527
21.650	524
21.701	523
21.751	522
21.801	520
21.851	521
21.901	521
21.953	522
22.003	524
22.053	527
22.103	529
22.153	534
22.203	539
22.254	542
22.304	548
22.354	552
22.404	554
22.454	558
22.504	559
22.555	558
22.605	557
22.655	553
22.705	550
22.755	544
22.806	538
22.857	532
22.907	525
22.957	519
23.007	513
23.057	510
23.108	506
23.158	505
23.208	507
23.258	508
23.308	513
23.359	520
23.409	527
23.459	534
23.509	544
23.559	551
23.609	557
23.660	566
23.710	568
23.761	571
23.811	572
23.861	567
23.911	565
23.962	558
24.012	550
24.062	543
24.112	532
24.162	522
24.213	514
24.263	507
24.313	500
24.363	497
24.413	497
24.463	497
24.514	502
24.564	508
24.614	516
24.665	525
24.715	536
24.765	545
24.816	553
24.866	562
24.916	568
24.966	573
25.016	576
25.067	573
25.117	571
25.167	567
25.217	558
25.267	550
25.317	542
25.368	531
25.418	521
25.468	514
25.518	505
25.569	500
25.619	499
25.670	498
25.720	502
25.770	505
25.820	511
25.870	519
25.921	527
25.971	537
26.021	544
26.071	552
26.121	554
26.171	564
26.222	567
26.272	566
26.322	568
26.372	564
26.422	558
26.474	554
26.524	544
26.574	540
26.624	533
26.674	526
26.724	521
26.775	515
26.825	513
26.875	511
26.925	512
26.975	512
27.025	514
27.076	519
27.126	522
27.176	526
27.226	531
27.276	537
27.327	540
27.378	545
27.428	548
27.478	550
27.528	552
27.578	553
27.629	553
27.679	552
27.729	548
27.779	549
27.829	546
27.879	542
27.930	541
27.980	537
28.030	534
28.080	532
28.130	529
28.181	526
28.231	524
28.282	522
28.332	521
28.382	520
28.432	520
28.483	521
28.533	521
28.583	523
28.633	527
28.683	529
28.733	533
28.784	537
28.834	540
28.884	546
28.934	549
28.984	554
29.035	556
29.085	556
29.136	558
29.186	557
29.236	555
29.286	553
29.337	547
29.387	542
29.437	537
29.487	530
29.537	524
29.587	517
29.638	513
29.688	509
29.738	506
29.788	506
29.838	506
29.889	510
29.939	514
29.989	522
30.040	529
30.090	537
30.140	544
30.191	553
30.241	560
30.291	564
30.341	570
30.391	570
30.442	570
30.492	568
30.542	562
30.592	558
30.642	549
30.692	539
30.743	531
30.793	521
30.843	513
30.893	505
30.944	501
30.994	496
31.045	496
31.095	498
31.145	502
31.195	510
31.245	517
31.296	527
31.346	536
31.396	547
31.446	556
31.496	562
31.546	570
31.597	573
31.647	575
31.697	575
31.747	569
31.797	566
31.848	558
31.899	548
31.949	539
31.999	529
32.049	520
32.099	511
32.150	506
32.200	499
32.250	497
32.300	499
32.350	500
32.400	506
32.451	512
32.501	520
32.551	529
32.601	538
32.651	546
32.701	553
32.753	560
32.803	563
32.853	567
32.903	569
32.953	565
33.004	565
33.054	559
33.104	552
33.154	547
33.204	537
33.254	532
33.305	526
33.355	520
33.405	515
33.455	512
33.505	512
33.555	511
33.606	512
33.657	514
33.707	518
33.757	522
33.807	527
33.858	531
33.908	536
33.958	541
34.008	544
34.058	548
34.108	550
34.159	551
34.209	553
34.259	552
34.309	552
34.359	552
34.410	548
34.460	547
34.510	544
34.561	540
34.611	537
34.661	534
34.712	531
34.762	528
34.812	525
34.862	522
34.912	521
34.962	519
35.013	519
35.063	518
35.113	519
35.163	520
35.213	523
35.264	525
35.314	530
35.364	533
35.414	539
35.465	543
35.515	547
35.566	552
35.616	555
35.666	559
35.716	560
35.766	559
35.816	559
35.867	555
35.917	551
35.967	546
36.017	540
36.067	534
36.118	527
36.168	520
36.218	514
36.268	509
36.318	506
36.369	503
36.420	504
36.470	507
36.520	511
36.570	517
36.620	524
36.671	531
36.721	540
36.771	549
36.821	556
36.871	565
36.921	569
36.972	570
37.022	573
37.072	570
37.122	567
37.172	561
37.222	552
37.274	544
37.324	535
37.374	525
37.424	516
37.474	508
37.525	502
37.575	497
37.625	496
37.675	496
37.725	499
37.775	506
37.826	513
37.876	522
37.926	532
37.976	541
38.026	550
38.076	561
38.127	567
38.178	570
38.228	575
38.278	574
38.328	571
38.379	568
38.429	561
38.479	554
38.529	544
38.579	534
38.629	524
38.680	516
38.730	509
38.780	503
38.830	501
38.880	497
38.930	500
38.981	503
39.031	509
39.082	516
39.132	524
39.182	532
39.233	540
39.283	547
39.333	554
39.383	558
39.433	564
39.483	564
39.534	564
39.584	563
39.634	558
39.684	557
39.734	551
39.784	543
39.835	538
39.885	530
39.936	527
39.986	522
40.036	519
40.087	516
40.137	515
40.187	514
40.237	515
40.287	516
40.337	519
40.388	522
40.438	526
40.488	530
40.538	533
40.588	537
40.639	541
40.689	542
40.739	547
40.789	550
40.840	550
40.890	554
40.941	553
40.991	552
41.041	553
41.091	548
41.141	549
41.191	546
41.242	541
41.292	538
41.342	533
41.392	529
41.442	525
41.493	521
41.543	518
41.593	514
41.643	513
41.693	512
41.744	513
41.795	515
41.845	518
41.895	522
41.945	528
41.995	534
42.045	540
42.096	547
42.146	552
42.196	557
42.246	562
42.296	564
42.347	566
42.397	565
42.447	561
42.497	558
42.547	552
42.597	545
42.649	537
42.699	528
42.749	520
42.799	513
42.849	507
42.899	501
42.950	499
43.000	499
43.050	501
43.100	506
43.150	512
43.201	520
43.251	529
43.301	539
43.351	548
43.401	557
43.451	565
43.502	569
43.553	575
43.603	576
43.653	572
43.703	571
43.754	564
43.804	556
43.854	547
43.904	537
43.954	527
44.004	517
44.055	509
44.105	502
44.155	498
44.205	495
44.255	495
44.305	499
44.356	503
44.406	511
44.457	520
44.507	530
44.557	539
44.608	548
44.658	557
44.708	563
44.758	571
44.808	572
44.858	572
44.909	572
44.959	566
45.009	561
45.059	554
45.109	545
45.159	537
45.210	528
45.260	520
45.310	514
45.361	508
45.411	504
45.462	503
45.512	504
45.562	506
45.612	510
45.662	516
45.712	522
45.763	528
45.813	536
45.863	542
45.913	547
45.963	553
46.013	557
46.064	558
46.114	560
46.164	560
46.214	557
46.265	555
46.316	550
46.366	548
46.416	543
46.466	538
46.516	533
46.566	528
46.617	525
46.667	523
46.717	521
46.767	519
46.817	518
46.867	518
46.918	518
46.968	520
47.018	521
47.068	523
47.118	527
47.170	530
47.220	533
47.270	537
47.320	542
47.370	541
47.420	548
47.471	551
47.521	552
47.571	555
47.621	556
47.671	555
47.722	555
47.772	550
47.822	550
47.872	545
47.922	539
47.972	535
48.023	529
48.074	524
48.124	518
48.174	514
48.224	510
48.274	508
48.325	508
48.375	509
48.425	511
48.475	516
48.525	521
48.576	528
48.626	536
48.676	543
48.726	550
48.776	557
48.826	563
48.877	566
48.927	570
48.978	568
49.028	568
49.078	564
49.128	557
49.179	551
49.229	542
49.279	533
49.329	522
49.379	514
49.430	507
49.480	501
49.530	499
49.580	496
49.630	497
49.680	501
49.731	506
49.781	514
49.832	523
49.882	533
49.932	542
49.983	554
50.033	562
50.083	568
50.133	574
50.183	575
50.233	575
50.284	574
50.334	567
50.384	562
50.434	552
50.484	542
50.534	532
50.585	522
50.635	513
50.685	505
50.736	501
50.786	496
50.837	496
50.887	498
50.937	501
50.987	508
51.037	515
51.087	524
51.138	534
51.188	543
51.238	551
51.288	559
51.338	565
51.388	567
51.439	572
51.489	570
51.539	566
51.589	563
51.640	557
51.691	549
51.741	542
51.791	534
51.841	527
51.891	520
51.941	515
51.992	510
52.042	508
52.092	508
52.142	508
52.192	511
52.242	514
52.293	519
52.343	525
52.393	530
52.443	535
52.493	540
52.545	546
52.595	548
52.645	553
52.695	554
52.745	554
52.795	556
52.846	554
52.896	553
52.946	551
52.996	547
