#Creator: pendulumdriveEventBuffer
#Creation time: Wed Apr 20 15:41:28 2016
#Time	Pos
#[s]	[au]
0.050	525
0.100	523
0.151	520
0.201	519
0.251	517
0.301	516
0.351	514
0.401	514
0.453	514
0.503	514
0.553	515
0.603	517
0.653	520
0.704	523
0.754	527
0.804	531
0.854	534
0.904	539
0.954	541
1.005	545
1.055	545
1.105	545
1.155	545
1.205	544
1.255	538
1.306	534
1.357	529
1.407	523
1.457	517
1.507	511
1.558	506
1.608	503
1.658	498
1.708	497
1.758	498
1.808	499
1.859	502
1.909	507
1.959	514
2.009	521
2.059	529
2.109	538
2.160	543
2.210	551
2.261	556
2.311	558
2.361	561
2.412	555
2.462	557
2.512	552
2.562	544
2.612	537
2.662	528
2.713	517
2.763	508
2.813	501
2.863	492
2.913	486
2.963	484
3.014	482
3.064	485
3.114	490
3.165	496
3.215	506
3.266	514
3.316	525
3.366	535
3.416	547
3.466	555
3.516	562
3.567	569
3.617	569
3.667	572
3.717	568
3.767	561
3.817	554
3.868	542
3.918	532
3.968	521
4.018	509
4.069	498
4.120	488
4.170	482
4.220	476
4.270	476
4.320	478
4.370	481
4.421	489
4.471	497
4.521	510
4.571	522
4.621	535
4.672	547
4.722	556
4.772	566
4.822	569
4.872	575
4.922	576
4.974	571
5.024	566
5.074	557
5.124	546
5.174	535
5.224	522
5.275	511
5.325	499
5.375	490
5.425	481
5.475	477
5.526	476
5.576	477
5.626	482
5.676	487
5.726	497
5.776	509
5.827	520
5.878	532
5.928	543
5.978	555
6.028	561
6.078	570
6.129	572
6.179	572
6.229	571
6.279	563
6.329	556
6.380	547
6.430	536
6.480	524
6.530	513
6.580	503
6.630	493
6.681	486
6.731	483
6.782	480
6.832	481
6.882	484
6.932	491
6.983	500
7.033	509
7.083	520
7.133	531
7.183	541
7.234	549
7.284	558
7.334	563
7.384	564
7.434	566
7.484	562
7.535	558
7.585	553
7.636	543
7.686	535
7.736	525
7.787	516
7.837	506
7.887	501
7.937	494
7.987	491
8.037	491
8.088	490
8.138	493
8.188	499
8.238	505
8.288	513
8.338	521
8.389	528
8.439	534
8.489	543
8.540	548
8.590	551
8.641	553
8.691	552
8.741	552
8.791	550
8.841	544
8.891	539
8.942	534
8.992	527
9.042	521
9.092	515
9.142	511
9.192	507
9.243	505
9.293	503
9.343	504
9.393	506
9.444	508
9.495	511
9.545	516
9.595	520
9.645	523
9.695	528
9.745	531
9.796	534
9.846	535
9.896	534
9.946	538
9.996	537
10.046	536
10.097	536
10.147	534
10.197	531
10.247	530
10.297	528
10.349	527
10.399	527
10.449	524
10.499	523
10.549	522
10.599	521
10.650	522
10.700	520
10.750	520
10.800	518
10.850	517
10.900	518
10.951	517
11.001	517
11.051	519
11.101	518
11.151	520
11.202	521
11.253	522
11.303	525
11.353	527
11.403	529
11.453	532
11.504	533
11.554	537
11.604	538
11.654	539
11.704	541
11.755	541
11.805	539
11.855	537
11.905	533
11.955	530
12.005	526
12.056	520
12.106	515
12.157	511
12.207	508
12.257	504
12.307	503
12.358	500
12.408	502
12.458	505
12.508	507
12.558	513
12.609	519
12.659	525
12.709	531
12.759	539
12.809	544
12.859	548
12.910	554
12.960	554
13.010	555
13.061	554
13.111	549
13.161	546
13.212	540
13.262	531
13.312	523
13.362	514
13.412	507
13.463	500
13.513	496
13.563	490
13.613	488
13.663	489
13.713	492
13.764	497
13.814	503
13.864	512
13.914	521
13.965	531
14.016	541
14.066	547
14.116	557
14.166	561
14.216	566
14.266	568
14.317	563
14.367	562
14.417	555
14.467	546
14.517	537
14.567	525
14.618	516
14.668	505
14.718	496
14.768	488
14.818	482
14.870	480
14.920	479
14.970	483
15.020	488
15.070	496
15.120	505
15.171	517
15.221	529
15.271	540
15.321	552
15.371	555
15.421	568
15.472	572
15.522	571
15.572	573
15.622	569
15.672	561
15.723	553
15.774	538
15.824	528
15.874	517
15.924	505
15.974	493
16.025	485
16.075	479
16.125	474
16.175	478
16.225	477
16.275	483
16.326	492
16.376	501
16.426	513
16.476	526
16.526	539
16.577	546
16.627	561
16.678	569
16.728	571
16.778	578
16.828	576
16.879	570
16.929	565
16.979	550
17.029	544
17.079	531
17.129	519
17.180	506
17.230	495
17.280	486
17.330	478
17.380	478
17.431	473
17.481	476
17.532	482
17.582	489
17.632	500
17.682	512
17.733	524
17.783	536
17.833	550
17.883	560
17.933	566
17.984	574
18.034	576
18.084	574
18.134	572
18.184	562
18.234	557
18.285	544
18.335	532
18.385	521
18.436	509
18.486	497
18.536	488
18.587	483
18.637	476
18.687	476
18.737	480
18.787	483
18.838	491
18.888	500
18.938	511
18.988	523
19.038	534
19.088	546
19.139	554
19.189	563
19.239	568
19.289	570
19.340	571
19.390	564
19.441	563
19.491	554
19.541	544
19.591	532
19.641	522
19.692	512
19.742	501
19.792	495
19.842	486
19.892	484
19.942	484
19.993	484
20.043	489
20.093	495
20.143	503
20.193	512
20.244	522
20.295	533
20.345	540
20.395	550
20.445	555
20.495	559
20.546	563
20.596	560
20.646	559
20.696	556
20.746	547
20.796	542
20.847	531
20.897	523
20.947	516
20.997	509
21.047	502
21.097	498
21.149	495
21.199	494
21.249	496
21.299	498
21.349	504
21.400	508
21.450	514
21.500	521
21.550	529
21.600	535
21.650	538
21.701	544
21.751	547
21.801	546
21.851	548
21.901	546
21.952	543
22.002	540
22.053	535
22.103	531
22.153	526
22.203	522
22.254	518
22.304	514
22.354	512
22.404	511
22.454	513
22.504	510
22.555	512
22.605	513
22.655	516
22.705	518
22.755	521
22.806	524
22.856	525
22.906	527
22.957	529
23.007	530
23.057	532
23.108	531
23.158	530
23.208	530
23.258	528
23.308	529
23.358	529
23.409	529
23.459	528
23.509	528
23.559	528
23.609	528
23.660	526
23.710	528
23.760	528
23.810	526
23.861	526
23.911	525
23.962	524
24.012	523
24.062	520
24.112	520
24.162	518
24.212	517
24.263	516
24.313	515
24.363	515
24.413	515
24.463	518
24.514	519
24.564	521
24.614	524
24.664	528
24.714	531
24.765	534
24.816	538
24.866	539
24.916	543
24.966	544
25.016	543
25.067	542
25.117	539
25.167	535
25.217	531
25.267	526
25.317	521
25.368	516
25.418	510
25.468	505
25.518	502
25.568	500
25.618	499
25.670	500
25.720	501
25.770	506
25.820	511
25.870	518
25.921	526
25.971	531
26.021	538
26.071	544
26.121	551
26.171	555
26.222	555
26.272	558
26.322	556
26.372	552
26.422	548
26.472	540
26.523	532
26.574	524
26.624	514
26.674	505
26.724	498
26.775	492
26.825	487
26.875	485
26.925	485
26.975	486
27.025	493
27.076	500
27.126	509
27.176	518
27.226	529
27.276	538
27.326	550
27.377	558
27.427	562
27.478	569
27.528	569
27.578	569
27.629	566
27.679	559
27.729	551
27.779	541
27.829	529
27.879	517
27.930	505
27.980	495
28.030	485
28.080	479
28.130	474
28.180	473
28.231	476
28.281	479
28.332	488
28.382	497
28.432	510
28.483	522
28.533	536
28.583	548
28.633	558
28.683	570
28.733	574
28.784	580
28.834	581
28.884	575
28.934	572
28.984	562
29.035	550
29.085	537
29.135	526
29.185	509
29.236	495
29.286	485
29.337	474
29.387	468
29.437	465
29.487	465
29.537	474
29.587	477
29.638	486
29.688	501
29.738	514
29.788	530
29.838	543
29.889	558
29.939	563
29.989	579
30.039	585
30.089	584
30.140	586
30.191	580
30.241	569
30.291	559
30.341	542
30.391	531
30.441	515
30.492	500
30.542	486
30.592	475
30.642	467
30.692	461
30.743	463
30.793	463
30.843	468
30.893	480
30.943	491
30.993	507
31.045	522
31.095	539
31.145	550
31.195	567
31.245	578
31.296	581
31.346	590
31.396	589
31.446	584
31.496	579
31.546	562
31.597	553
31.647	538
31.697	522
31.747	506
31.797	491
31.847	479
31.898	469
31.949	465
31.999	459
32.049	461
32.099	468
32.150	475
32.200	487
32.250	500
32.300	516
32.350	530
32.400	548
32.451	561
32.501	570
32.551	581
32.601	585
32.651	585
32.701	586
32.752	576
32.802	571
32.853	557
32.903	542
32.953	529
33.004	515
33.054	500
33.104	487
33.154	478
33.204	467
33.254	464
33.305	467
33.355	468
33.405	477
33.455	487
33.505	497
33.555	511
33.606	525
33.656	538
33.706	550
33.757	562
33.807	570
33.858	575
33.908	579
33.958	575
34.008	575
34.058	567
34.108	555
34.159	545
34.209	533
34.259	521
34.309	509
34.359	497
34.409	488
34.460	481
34.510	478
34.560	475
34.610	478
34.661	482
34.712	489
34.762	498
34.812	508
34.862	520
34.912	529
34.962	541
35.013	549
35.063	557
35.113	563
35.163	563
35.213	565
35.264	563
35.314	557
35.364	553
35.414	544
35.464	536
35.514	528
35.566	518
35.616	509
35.666	502
35.716	497
35.766	493
35.816	492
35.867	491
35.917	493
35.967	498
36.017	503
36.067	510
36.118	516
36.168	525
36.218	528
36.268	537
36.318	543
36.368	545
36.419	549
36.470	550
36.520	548
36.570	548
36.620	541
36.670	541
36.721	535
36.771	530
36.821	526
36.871	521
36.921	517
36.972	513
37.022	510
37.072	509
37.122	508
37.172	509
37.222	510
37.273	512
37.323	513
37.374	516
37.424	517
37.474	521
37.524	525
37.575	526
37.625	529
37.675	531
37.725	531
37.775	532
37.826	531
37.876	534
37.926	533
37.976	531
38.026	532
38.076	531
38.127	530
38.177	530
38.228	527
38.278	528
38.328	527
38.379	526
38.429	525
38.479	523
38.529	521
38.579	520
38.629	517
38.680	516
38.730	515
38.780	515
38.830	514
38.880	514
38.930	514
38.981	515
39.031	515
39.081	517
39.132	521
39.182	524
39.233	527
39.283	530
39.333	533
39.383	538
39.433	539
39.483	543
39.534	545
39.584	542
39.634	544
39.684	542
39.734	536
39.784	534
39.835	528
39.885	524
39.935	517
39.985	512
40.036	507
40.087	503
40.137	499
40.187	497
40.237	497
40.287	497
40.337	500
40.388	506
40.438	511
40.488	518
40.538	525
40.588	533
40.638	539
40.689	549
40.739	555
40.789	556
40.839	560
40.889	560
40.941	558
40.991	555
41.041	547
41.091	542
41.141	533
41.191	523
41.242	515
41.292	505
41.342	496
41.392	490
41.442	486
41.492	480
41.543	480
41.593	484
41.643	487
41.693	496
41.743	504
41.794	515
41.845	525
41.895	537
41.945	548
41.995	555
42.045	566
42.096	571
42.146	574
42.196	575
42.246	569
42.296	567
42.347	558
42.397	546
42.447	536
42.497	523
42.547	511
42.597	497
42.648	488
42.698	476
42.749	470
42.799	468
42.849	466
42.899	471
42.950	476
43.000	485
43.050	498
43.100	510
43.150	525
43.201	540
43.251	554
43.301	565
43.351	577
43.401	584
43.451	584
43.502	588
43.552	583
43.602	574
43.653	566
43.703	548
43.753	539
43.804	521
43.854	506
43.904	490
43.954	476
44.004	466
44.055	457
44.105	459
44.155	454
44.205	458
44.255	468
44.305	478
44.356	493
44.406	509
44.456	528
44.506	541
44.557	561
44.608	576
44.658	584
44.708	596
44.758	599
44.808	597
44.858	595
44.909	578
44.959	574
45.009	558
45.059	538
45.109	520
45.159	501
45.210	483
45.260	467
45.310	457
45.360	445
45.410	442
45.462	445
45.512	447
45.562	458
45.612	473
45.662	490
45.712	509
45.763	529
45.813	549
45.863	566
45.913	584
45.963	596
46.013	604
46.064	610
46.114	604
46.164	605
46.214	593
46.264	576
46.315	560
46.366	539
46.416	518
46.466	496
46.516	479
46.566	458
46.617	446
46.667	438
46.717	432
46.767	434
46.817	439
46.867	450
46.918	468
46.968	484
47.018	508
47.068	529
47.118	553
47.169	572
47.219	589
47.270	605
47.320	610
47.370	621
47.420	617
47.471	607
47.521	600
47.571	582
47.621	561
47.671	541
47.721	516
47.772	491
47.822	471
47.872	455
47.922	438
47.972	431
48.023	426
48.073	426
48.124	436
48.174	443
48.224	463
48.274	485
48.325	508
48.375	532
48.425	556
48.475	579
48.525	592
48.576	612
48.626	620
48.676	620
48.726	623
48.776	614
48.826	602
48.877	585
48.927	562
48.977	541
49.028	515
49.078	490
49.128	467
49.179	450
49.229	434
49.279	423
49.329	424
49.379	420
49.430	430
49.480	445
49.530	461
49.580	484
49.630	508
49.680	534
49.731	558
49.781	582
49.831	600
49.881	610
49.932	624
49.982	624
50.033	624
50.083	617
50.133	600
50.183	585
50.233	562
50.284	537
50.334	512
50.384	493
50.434	465
50.484	444
50.534	434
50.585	422
50.635	418
50.685	424
50.735	429
50.785	451
50.836	464
50.887	487
50.937	511
50.987	537
51.037	562
51.087	581
51.138	602
51.188	604
51.238	623
51.288	625
51.338	618
51.388	613
51.439	601
51.489	579
51.539	559
51.589	532
51.639	509
51.689	485
51.741	466
51.791	446
51.841	433
51.891	429
51.941	423
51.992	435
52.042	436
52.092	452
52.142	472
52.192	493
52.242	515
52.293	539
52.343	563
52.393	580
52.443	599
52.493	609
52.544	612
52.594	619
52.645	615
52.695	602
52.745	592
52.795	570
52.846	551
52.896	529
52.946	507
52.996	484
53.046	466
53.096	452
53.147	439
53.197	437
53.247	430
53.297	437
53.347	450
53.398	461
53.448	480
53.498	500
53.549	522
53.599	542
53.649	564
53.700	579
53.750	589
53.800	602
53.850	606
53.900	605
53.950	604
54.001	591
54.051	580
54.101	562
54.151	542
54.201	524
54.252	504
54.302	486
54.352	471
54.402	460
54.453	445
54.503	446
54.554	449
54.604	451
54.654	462
54.704	474
54.754	490
54.804	506
54.855	525
54.905	542
54.955	557
55.005	572
55.055	581
55.106	588
55.156	593
55.206	589
55.256	589
55.306	578
55.357	565
55.408	553
55.458	537
55.508	522
55.558	507
55.608	493
55.659	480
55.709	471
55.759	466
55.809	462
55.859	463
55.909	467
55.960	475
56.010	487
56.060	496
56.110	510
56.160	522
56.210	536
56.262	547
56.312	559
56.362	567
56.412	570
56.462	574
56.513	574
56.563	571
56.613	567
56.663	557
56.713	548
56.763	538
56.814	526
56.864	517
56.914	506
56.964	497
57.014	489
57.064	485
57.115	481
57.166	479
57.216	482
57.266	483
57.316	489
57.367	497
57.417	505
57.467	513
57.517	523
57.567	532
57.617	538
57.668	547
57.718	553
57.768	555
57.818	560
57.868	555
57.918	559
57.969	557
58.019	549
58.070	547
58.120	540
58.170	532
58.221	523
58.271	515
58.321	509
58.371	503
58.421	498
58.471	493
58.522	491
58.572	489
58.622	488
58.672	493
58.722	494
58.772	499
58.823	506
58.873	512
58.924	520
58.974	527
59.024	535
59.075	540
59.125	550
59.175	553
59.225	556
59.275	560
59.325	559
59.376	557
59.426	556
59.476	548
59.526	544
59.576	537
59.627	527
59.677	520
59.727	510
59.777	503
59.828	495
59.878	489
59.929	486
59.979	481
60.029	482
60.079	483
60.129	487
60.179	493
60.230	501
60.280	509
60.330	519
60.380	530
60.430	539
60.481	549
60.531	557
60.581	564
60.631	570
60.681	568
60.732	572
60.783	569
60.833	560
60.883	555
60.933	546
60.983	534
61.033	523
61.084	512
61.134	499
